1.7693058e+00
1.9146162e+00
1.4610325e+00
1.8333854e+00
1.6477290e+00
1.5009587e+00
1.5037637e+00
1.6814909e+00
1.8742681e+00
1.9555714e+00
1.4848773e+00
1.8656457e+00
1.8149660e+00
1.6710697e+00
1.7357012e+00
1.5223542e+00
1.6522720e+00
2.0264641e+00
1.8909840e+00
1.9287954e+00
1.7598559e+00
1.4887525e+00
1.8129448e+00
1.8671936e+00
1.7916635e+00
1.7436279e+00
1.8121592e+00
1.6213589e+00
1.6957607e+00
1.5190427e+00
1.7227882e+00
1.4581856e+00
1.6241705e+00
1.4879129e+00
1.4903982e+00
1.8660411e+00
1.7278736e+00
1.6907005e+00
1.7866932e+00
1.4854984e+00
1.6693665e+00
1.6600927e+00
1.7838716e+00
1.8277721e+00
1.5142044e+00
1.5710415e+00
1.6459773e+00
1.7512198e+00
1.7753503e+00
1.8309622e+00
1.5537867e+00
1.7346324e+00
1.7266422e+00
1.3669369e+00
1.5119323e+00
1.6429126e+00
1.8848591e+00
1.5427443e+00
1.7824812e+00
1.4453110e+00
1.7657159e+00
1.4256059e+00
1.7385534e+00
1.7888092e+00
1.8801536e+00
1.9156491e+00
1.6773111e+00
1.5542733e+00
1.4762472e+00
1.6724415e+00
1.8393766e+00
1.6060535e+00
1.8180215e+00
1.4885840e+00
1.9304956e+00
1.6617728e+00
1.6224543e+00
1.5976392e+00
1.6853259e+00
1.6756807e+00
1.6259923e+00
1.8848038e+00
1.9548567e+00
1.6606324e+00
1.8900912e+00
1.6630325e+00
1.8429093e+00
1.9474239e+00
1.5450004e+00
1.8060747e+00
1.4789364e+00
1.5136357e+00
1.7665024e+00
1.8100764e+00
1.8409647e+00
1.5026066e+00
1.7525046e+00
1.7114997e+00
1.5598132e+00
1.6072661e+00
1.5342388e+00
1.7512923e+00
1.5752050e+00
1.5701350e+00
1.5442933e+00
1.8032345e+00
1.6173475e+00
1.8314719e+00
1.7207251e+00
1.7806270e+00
1.6470854e+00
1.5428492e+00
1.5083483e+00
1.7263610e+00
1.4321869e+00
1.8276934e+00
1.7364023e+00
1.8990247e+00
1.5184988e+00
1.6624756e+00
1.4931757e+00
1.8074252e+00
1.4095931e+00
1.7680447e+00
1.7066237e+00
1.8034411e+00
1.4888646e+00
1.7176599e+00
1.5725212e+00
1.8454778e+00
1.7377104e+00
1.8439056e+00
1.5261238e+00
1.5933210e+00
1.5414598e+00
1.5214013e+00
1.8842067e+00
1.6533679e+00
1.7033178e+00
1.4546292e+00
1.8247521e+00
1.5532092e+00
1.6323357e+00
1.6416323e+00
1.6000388e+00
1.4483837e+00
1.4658472e+00
1.4820808e+00
1.4531009e+00
1.5168922e+00
1.6163553e+00
1.4460138e+00
1.8466166e+00
1.8609174e+00
1.6825672e+00
1.6130433e+00
1.6070021e+00
1.8884631e+00
1.4737315e+00
1.4243913e+00
1.6554569e+00
1.5976169e+00
1.6472706e+00
1.6144709e+00
1.5029219e+00
1.5244385e+00
1.8598612e+00
1.8807510e+00
1.6956321e+00
1.4326436e+00
1.6305844e+00
1.6201507e+00
1.8427524e+00
1.3504759e+00
1.4142503e+00
1.5166824e+00
1.6403727e+00
1.6594416e+00
1.7043347e+00
1.8063910e+00
1.6360685e+00
1.6205261e+00
1.7697705e+00
1.5258621e+00
1.6723643e+00
1.5647346e+00
1.2769301e+00
1.2191416e+00
1.2095772e+00
9.1369466e-01
1.2391352e+00
1.2202332e+00
1.0746875e+00
1.0342778e+00
1.1170297e+00
1.1510189e+00
1.0899952e+00
1.1851427e+00
1.2269737e+00
1.2097792e+00
1.1733131e+00
1.0244324e+00
1.2340570e+00
1.0448346e+00
1.0669217e+00
1.2935623e+00
1.3019571e+00
1.1345401e+00
1.1499938e+00
1.1138251e+00
9.6540382e-01
9.8100804e-01
1.0783854e+00
9.5253855e-01
1.2489179e+00
9.7912912e-01
1.0343007e+00
9.1809687e-01
9.7296667e-01
1.0325713e+00
9.6712163e-01
1.2687025e+00
1.1091307e+00
9.1353185e-01
1.2974555e+00
1.3072367e+00
1.0731448e+00
8.9128105e-01
9.8781834e-01
1.0406587e+00
1.2267847e+00
1.0417480e+00
1.1580715e+00
1.1905748e+00
1.0159910e+00
8.9686669e-01
9.7492432e-01
1.0304987e+00
1.0319857e+00
1.2024013e+00
9.1211756e-01
1.0307579e+00
1.2349521e+00
8.6576529e-01
1.2854220e+00
1.1630940e+00
1.0993981e+00
1.0823918e+00
9.7674520e-01
1.0374945e+00
1.3012545e+00
1.0888566e+00
1.1396830e+00
9.8647669e-01
1.1152606e+00
1.8907343e+00
1.9764458e+00
1.8697623e+00
1.8402029e+00
2.0917422e+00
1.6742422e+00
2.0483740e+00
2.1044682e+00
2.0102769e+00
1.7595286e+00
1.7588597e+00
1.7998283e+00
1.9298019e+00
1.7634626e+00
1.9499096e+00
1.7689441e+00
1.9462746e+00
1.9331030e+00
1.9693891e+00
1.9583324e+00
2.0208631e+00
2.0572318e+00
1.8162781e+00
1.9718983e+00
1.7448034e+00
1.6670070e+00
1.9899993e+00
1.8443063e+00
1.8612781e+00
2.1060691e+00
2.0080667e+00
1.9079376e+00
2.0762561e+00
2.0310746e+00
1.9423848e+00
1.7850142e+00
1.7948384e+00
2.1227882e+00
1.6564299e+00
1.9494028e+00
1.7605093e+00
2.1212525e+00
1.9977373e+00
1.8973706e+00
1.8673563e+00
1.6728682e+00
1.9412019e+00
1.5935415e+00
1.7416686e+00
1.9079458e+00
1.6453224e+00
1.9912649e+00
2.0447652e+00
2.0017682e+00
1.6935111e+00
1.9407979e+00
1.8273136e+00
2.0941740e+00
1.9724149e+00
1.9776675e+00
1.8451759e+00
1.8273446e+00
2.0034755e+00
1.6919528e+00
1.6763857e+00
1.7801005e+00
1.8037580e+00
2.0495836e+00
2.0433776e+00
1.7776880e+00
1.8197900e+00
1.8703245e+00
1.8417809e+00
1.9349622e+00
1.9638250e+00
1.6869716e+00
1.8063507e+00
1.5799983e+00
2.0657462e+00
1.7382032e+00
1.6999114e+00
1.8099606e+00
1.7010564e+00
1.8765926e+00
1.8059928e+00
2.1573381e+00
1.9801268e+00
1.6235860e+00
2.0068165e+00
1.7613545e+00
1.8872996e+00
1.9419433e+00
2.1239123e+00
1.8649268e+00
2.0867296e+00
1.7701498e+00
2.0908123e+00
1.9805640e+00
1.9269409e+00
2.0364891e+00
1.9353554e+00
1.6999541e+00
1.7088203e+00
2.0258594e+00
1.6512574e+00
1.7552183e+00
1.9107213e+00
2.0255171e+00
1.9204942e+00
1.7308500e+00
1.8220013e+00
1.8946037e+00
2.1751712e+00
1.7247612e+00
2.0659091e+00
1.8834796e+00
1.7639238e+00
1.8338102e+00
1.9491322e+00
1.8481691e+00
1.7346151e+00
1.9224264e+00
1.7287688e+00
1.7578661e+00
1.9701899e+00
1.9007615e+00
1.7998293e+00
1.9019873e+00
1.7626724e+00
2.0517099e+00
2.0657820e+00
1.9096259e+00
1.8205902e+00
1.8938281e+00
1.6561690e+00
2.0843733e+00
2.0332113e+00
2.0777286e+00
1.8036593e+00
1.9574281e+00
1.7015560e+00
1.8472943e+00
1.8053897e+00
1.7309805e+00
1.7276546e+00
1.9170033e+00
1.6881853e+00
1.8718653e+00
1.9429769e+00
1.9529483e+00
2.0190221e+00
2.0083220e+00
1.7055231e+00
1.7118830e+00
1.7650471e+00
1.8655658e+00
1.9554059e+00
1.8040371e+00
2.0655840e+00
2.0819466e+00
2.0311960e+00
2.0179116e+00
1.8248568e+00
1.7699368e+00
1.9322140e+00
2.0830101e+00
1.9295634e+00
1.7450984e+00
1.8507037e+00
1.6921486e+00
1.7760081e+00
1.8092053e+00
1.9290413e+00
1.9405446e+00
2.1109215e+00
1.8258469e+00
2.0815576e+00
1.8674265e+00
2.1334979e+00
1.8334682e+00
1.9867690e+00
1.7839376e+00
1.8845370e+00
2.0136204e+00
1.7250566e+00
1.7851989e+00
1.7013201e+00
1.9280225e+00
2.1359445e+00
1.8275056e+00
2.0507568e+00
2.0085034e+00
1.6659245e+00
1.9514936e+00
1.8847947e+00
1.7694364e+00
1.5423593e+00
1.8080044e+00
1.9030519e+00
1.8730028e+00
1.9747921e+00
1.9517999e+00
1.9537144e+00
1.9020143e+00
1.7792946e+00
1.7391867e+00
1.9219749e+00
2.0057441e+00
1.7651460e+00
1.8568861e+00
2.0068724e+00
1.8038269e+00
1.9990103e+00
1.7950311e+00
2.1572189e+00
1.7317982e+00
2.0026388e+00
1.6964127e+00
1.7263568e+00
1.6815326e+00
1.8863261e+00
2.0639259e+00
1.8981493e+00
1.8243300e+00
1.9262741e+00
1.9394989e+00
1.9454340e+00
1.9883459e+00
2.0428534e+00
1.8373122e+00
1.9610337e+00
1.7835812e+00
1.7479524e+00
1.8875499e+00
1.8336256e+00
1.9281479e+00
1.9844755e+00
2.0844259e+00
1.7147385e+00
2.0089548e+00
1.8702809e+00
2.0315224e+00
2.0316154e+00
1.7438260e+00
1.9905242e+00
1.9459222e+00
1.9335066e+00
2.0218878e+00
1.6853328e+00
1.8164761e+00
1.7440625e+00
2.1110735e+00
1.9024070e+00
1.8281838e+00
1.9390394e+00
1.9272338e+00
1.8667079e+00
1.9100356e+00
1.9440514e+00
1.8954805e+00
2.0914644e+00
1.7282838e+00
1.7474497e+00
1.6457913e+00
1.6395668e+00
1.8871291e+00
1.9153605e+00
1.7732995e+00
1.9974010e+00
1.9462167e+00
1.9901456e+00
2.1219999e+00
2.0250022e+00
1.6801739e+00
1.6268468e+00
1.9423943e+00
1.7090943e+00
1.8667287e+00
1.9032768e+00
2.0755292e+00
1.8393570e+00
1.8680249e+00
1.9505363e+00
1.9996338e+00
1.9150575e+00
1.8258191e+00
1.7827828e+00
1.8702449e+00
1.7766591e+00
1.6851651e+00
1.9195137e+00
1.7919758e+00
1.8330245e+00
1.9495230e+00
1.8453090e+00
1.9754738e+00
1.8084300e+00
1.9277042e+00
1.9823002e+00
1.8911492e+00
1.6573618e+00
1.7615808e+00
1.9499485e+00
1.7370949e+00
1.7360267e+00
2.0537164e+00
1.7905096e+00
2.0865339e+00
1.9059951e+00
1.9716328e+00
1.8509729e+00
2.0611063e+00
2.0201801e+00
1.7768005e+00
1.8076523e+00
2.0213153e+00
2.0523946e+00
1.7923164e+00
1.9602751e+00
1.8598192e+00
1.9968858e+00
2.0418628e+00
1.7074404e+00
2.0227833e+00
2.1004659e+00
1.8763292e+00
1.9504586e+00
1.9176661e+00
1.7081085e+00
1.7121964e+00
1.8353839e+00
1.9417813e+00
2.0277816e+00
1.9891056e+00
1.7389912e+00
1.9147108e+00
1.6923369e+00
1.6534390e+00
1.6888191e+00
1.9250562e+00
1.8709530e+00
1.7589053e+00
1.8438855e+00
1.7529308e+00
1.6858833e+00
2.0496624e+00
1.8968784e+00
2.0336310e+00
2.0020788e+00
1.8937471e+00
2.0020498e+00
2.0176353e+00
2.0923774e+00
1.7302973e+00
2.0544599e+00
1.9349459e+00
2.1110170e+00
1.9164127e+00
1.8150608e+00
1.9985368e+00
1.7308698e+00
1.8650588e+00
2.0562853e+00
1.9493152e+00
2.0101796e+00
1.9760298e+00
1.9378765e+00
1.8499302e+00
1.9398623e+00
1.7262152e+00
1.9729969e+00
1.9439804e+00
1.9878755e+00
2.0402236e+00
2.1436619e+00
1.9903513e+00
1.9505181e+00
2.1150870e+00
1.8998686e+00
1.5809740e+00
1.6754024e+00
2.0168797e+00
1.7416780e+00
2.0098632e+00
1.6533376e+00
1.7385507e+00
1.8820616e+00
1.6464051e+00
1.9112961e+00
1.8094734e+00
1.6331096e+00
1.8120705e+00
1.6826465e+00
1.7219470e+00
1.6904465e+00
1.7430758e+00
1.7388875e+00
1.6905141e+00
1.8928868e+00
1.6868806e+00
1.8141114e+00
1.9060363e+00
1.7950309e+00
1.8301089e+00
1.8613019e+00
1.6205096e+00
1.8067096e+00
2.0516357e+00
1.9177813e+00
1.7509678e+00
1.6666298e+00
1.8582714e+00
1.8930112e+00
1.7904069e+00
1.6597011e+00
1.9556960e+00
1.6564017e+00
1.6497952e+00
1.6215272e+00
1.6966974e+00
1.9654057e+00
1.8121575e+00
1.6691881e+00
1.9396308e+00
1.9336908e+00
1.9316187e+00
1.6643212e+00
1.9941042e+00
2.0714007e+00
2.0652720e+00
1.9361134e+00
1.9401345e+00
1.8211195e+00
1.7123864e+00
1.8424631e+00
1.6807902e+00
1.6675668e+00
2.0254577e+00
1.6812512e+00
1.7462166e+00
1.7925428e+00
1.8522850e+00
1.9346974e+00
1.6250609e+00
1.9813322e+00
1.7634849e+00
2.0483000e+00
1.8393986e+00
1.7996483e+00
1.5981486e+00
1.5537413e+00
1.8311292e+00
1.6615609e+00
2.0995002e+00
1.6707113e+00
2.0257257e+00
1.7628035e+00
1.8649111e+00
2.0328062e+00
1.7549460e+00
1.7220403e+00
1.7641663e+00
1.9062071e+00
1.8546812e+00
1.5456516e+00
1.5901488e+00
1.7423053e+00
1.3873873e+00
1.8116714e+00
1.7872617e+00
1.6619301e+00
1.6669700e+00
2.0222937e+00
1.8572551e+00
1.8697939e+00
2.0077988e+00
1.6283481e+00
1.8681571e+00
1.9346565e+00
1.8059801e+00
1.5831840e+00
1.8457569e+00
1.7318270e+00
1.6244824e+00
1.5858392e+00
1.9793299e+00
1.6869928e+00
1.7306657e+00
1.6721141e+00
1.6681225e+00
1.5978230e+00
1.9676837e+00
1.7547779e+00
1.6323369e+00
1.7170747e+00
1.7223431e+00
9.3838388e-01
1.3453123e+00
1.0619041e+00
9.8011402e-01
9.3744598e-01
9.9595452e-01
8.5430107e-01
1.0716703e+00
1.1753150e+00
1.1437924e+00
9.3171413e-01
8.6964757e-01
1.2020405e+00
1.2313635e+00
1.0531040e+00
8.7136338e-01
1.2079209e+00
9.9949388e-01
1.0317258e+00
1.8592163e+00
1.4964340e+00
1.5704181e+00
1.9121965e+00
1.8273178e+00
1.7737001e+00
1.9393874e+00
1.8253634e+00
1.8553951e+00
1.5890136e+00
1.8317958e+00
1.7163223e+00
1.7171420e+00
1.5431662e+00
1.8620832e+00
1.6387485e+00
1.8385058e+00
1.9054662e+00
1.5965526e+00
1.6524521e+00
1.8657864e+00
1.8482342e+00
1.9459790e+00
1.9244204e+00
1.8573749e+00
1.5883264e+00
1.5889800e+00
1.6533236e+00
1.9203787e+00
1.9619854e+00
1.9173871e+00
1.5705376e+00
1.8951222e+00
1.6109569e+00
1.6292949e+00
1.8427378e+00
1.6475744e+00
1.7828510e+00
1.9613957e+00
1.8209444e+00
1.8733395e+00
1.6509090e+00
1.8937582e+00
2.0589850e+00
1.8782462e+00
1.5560781e+00
1.7567921e+00
1.6925424e+00
1.7793430e+00
1.8002209e+00
1.9942469e+00
1.6609844e+00
1.6710107e+00
1.5685624e+00
1.9656887e+00
1.7014027e+00
1.6059040e+00
1.7848354e+00
1.6829859e+00
1.7655891e+00
1.8938083e+00
1.6603593e+00
1.9574404e+00
1.6026318e+00
1.6585737e+00
1.6293834e+00
1.7815227e+00
1.6083223e+00
1.7353127e+00
1.6631563e+00
8.5556583e-01
1.1810861e+00
9.1763975e-01
1.1169228e+00
1.2645328e+00
9.8325745e-01
1.1200293e+00
1.1246184e+00
1.0064980e+00
1.1097620e+00
8.6250378e-01
1.2410320e+00
8.8277261e-01
9.3700650e-01
1.1994949e+00
1.0313253e+00
1.1919729e+00
9.9290355e-01
8.9401034e-01
8.0046725e-01
1.1208450e+00
1.0125250e+00
9.8318553e-01
1.1307159e+00
8.4042316e-01
9.7203645e-01
1.1775630e+00
1.1392989e+00
8.9529654e-01
8.7056826e-01
8.6030569e-01
8.0665122e-01
1.0628621e+00
1.1352397e+00
1.1344310e+00
1.0289809e+00
9.0746467e-01
1.0800265e+00
8.6701587e-01
8.5471106e-01
8.0377356e-01
1.2135721e+00
1.1513990e+00
1.1595432e+00
1.0886100e+00
1.2461886e+00
8.8804313e-01
1.1193141e+00
1.3882448e+00
1.3833038e+00
1.2858580e+00
1.0290613e+00
1.1156516e+00
1.1573722e+00
1.2952301e+00
1.2446244e+00
1.2153006e+00
1.1042295e+00
1.1155149e+00
1.2709127e+00
